,ID,acq-AP_run-01,acq-PA_run-01,acq-AP_run-02,acq-PA_run-02
0,010001,35.236946106,34.0000152588,37.1161460876,38.0962257385
1,010002,38.2978134155,42.1337356567,38.8524971008,37.4001426697
2,010004,35.5433807373,36.7345695496,35.0289840698,34.7406349182
3,010005,44.886806488,49.6337814331,44.6530227661,46.9307022095
4,010006,34.8771018982,31.7548789978,42.1817932129,38.8919792175
5,010007,40.2372665405,36.1069412231,39.194694519,37.7331771851
6,010008,43.727268219,47.025478363,49.3984603882,42.5431098938
7,010009,39.3377304077,37.3533821106,39.9220924377,38.134223938
8,010011,47.2784423828,41.4749946594,42.5268630981,37.4428863525
9,010014,42.1635131836,33.9841766357,40.211517334,34.1385231018
10,010015,42.998790741,29.8148212433,31.6957874298,33.477973938
11,010016,33.373966217,30.8137187958,36.585723877,29.8186225891
12,010017,43.4501571655,42.505695343,43.7592048645,40.0623550415
13,010018,36.8042106628,42.5711631775,42.2677001953,36.2721290588
14,010020,51.379486084,38.1588172913,40.6680297852,44.3470954895
15,010021,37.4115867615,38.1928253174,43.1073646545,41.8142127991
16,010022,41.5280609131,40.0627174377,44.3315429688,38.2788314819
17,010023,50.9050979614,44.1183319092,50.7605705261,45.9205589294
18,010024,34.946647644,33.4083709717,41.1502227783,32.8969535828
19,010026,38.3640289307,31.6404037476,36.0303955078,33.490020752
20,010027,44.449180603,44.091293335,48.7630233765,42.1477355957
21,010029,35.7704658508,37.76978302,42.5963745117,
22,010030,41.310092926,37.3182296753,45.9232788086,42.1828651428
23,010031,41.3488998413,36.9889945984,43.500919342,37.2669677734
24,010032,37.8449745178,44.425491333,49.9026565552,47.2601470947
25,010033,39.2394561768,39.7574081421,45.6881561279,37.4570770264
26,010034,34.5063476562,39.5680084229,41.1735458374,35.8617630005
27,010035,46.7811737061,44.5044670105,46.861656189,41.5125389099
28,010036,37.1540260315,33.1162719727,35.2413597107,40.3816642761
29,010037,38.016292572,32.650642395,39.8157920837,27.4639511108
30,010038,35.7066459656,31.7061576843,36.3617401123,22.9971733093
31,010040,41.9501533508,35.4354400635,42.0572967529,36.1113357544
32,010041,40.5296478271,35.9041938782,39.9207611084,32.6582946777
33,010042,36.8920593262,32.8295478821,37.68126297,34.8924293518
34,010044,42.9648399353,39.0779685974,44.8435287476,40.5381317139
35,010045,40.7804107666,35.2472457886,33.605140686,33.1299667358
36,010046,37.7365188599,37.9513015747,35.9226951599,35.8899116516
37,010048,34.365447998,33.4337539673,35.7160797119,29.1416873932
38,010050,34.6449661255,30.7569046021,37.2068939209,26.9466075897
39,010051,35.1616134644,33.0598983765,32.61302948,32.3561859131
40,010052,42.8391418457,38.3273582458,39.7592468262,35.1429901123
41,010054,39.6419677734,37.3538970947,40.7896728516,31.7616729736
42,010056,39.2147331238,32.756061554,33.878112793,32.6422080994
43,010058,37.6320419312,33.5320587158,38.4235572815,36.6627502441
44,010059,31.8988876343,31.7201843262,33.9963035583,30.5228443146
45,010060,30.8241214752,31.7795333862,33.145198822,29.0234527588
46,010061,39.7861099243,39.5278167725,45.1776008606,39.0597686768
47,010062,45.8867607117,40.7412490845,48.8736190796,39.0670433044
48,010064,30.192943573,32.3256378174,33.133605957,32.0988845825
49,010065,27.6152973175,29.6549987793,31.1546764374,27.3470306396
50,010067,39.3759651184,37.1220932007,43.2072715759,41.6303825378
51,010068,36.2404823303,36.6094360352,37.209564209,36.8285827637
52,010069,38.9690856934,34.4993934631,36.0360717773,37.844909668
53,010071,49.1872634888,37.7917060852,36.9272689819,39.7013397217
54,010072,35.5954818726,33.290271759,43.2468109131,42.810798645
55,010073,40.5309867859,36.6616325378,46.8232154846,34.0964736938
56,010074,44.9202728271,41.7218322754,47.4167633057,38.5752105713
57,010075,31.2148017883,33.4307365417,27.3004817963,26.3873786926
58,010076,43.0116539001,39.3262634277,40.0327758789,32.6822395325
59,010077,40.4078292847,46.0330924988,51.6399612427,42.5180244446
60,010078,38.5938301086,36.8307113647,43.5028648376,41.2054519653
61,010079,44.3557319641,43.8171234131,48.2977752686,49.6479644775
62,010080,45.7989120483,41.5796585083,41.7685928345,35.3502731323
63,010081,43.6466598511,,,
64,010082,45.4589538574,39.2385406494,45.6113548279,43.1443710327
65,010083,39.6507110596,31.5992908478,32.9398651123,
66,010084,38.795791626,35.4474334717,41.7180786133,35.7560424805
67,010086,45.7656784058,44.1956062317,44.1328125,38.968624115
68,010087,33.1359329224,31.9826412201,,
69,010088,35.905128479,34.7747077942,34.7298736572,34.55443573
70,010090,46.2906646729,38.0384521484,44.7322006226,36.2174530029
71,010091,28.6328239441,25.5864620209,28.8385276794,27.8446292877
72,010092,37.6278648376,39.0030517578,38.4192504883,35.3997573853
73,010093,39.806892395,32.2945594788,34.0796966553,36.2592353821
74,010094,31.7336578369,41.5380210876,42.0695114136,34.145866394
75,010096,42.551448822,31.0825157166,32.2361907959,30.2263202667
76,010097,34.4539222717,33.4198608398,36.4499549866,36.1135940552
77,010098,31.8684825897,26.8318405151,38.1261024475,31.8951911926
78,010099,44.9250259399,42.9394569397,41.3239364624,40.1917190552
79,010101,40.4570846558,37.7773857117,40.8829498291,40.905456543
80,010102,37.7390136719,36.6637535095,41.974647522,39.2436218262
81,010103,46.9104118347,38.642780304,42.1931304932,35.0445594788
82,010105,39.8743133545,31.9103832245,35.0587692261,31.2495670319
83,010106,36.1439437866,34.7735137939,36.4636154175,35.8940010071
84,010107,43.011390686,37.2311477661,40.1494369507,39.5667953491
85,010108,36.5700378418,36.9694862366,38.4866638184,37.7612457275
86,010109,41.453742981,33.211605072,42.1639823914,31.6477966309
87,010111,46.0310134888,42.9109573364,44.3178939819,34.4914627075
88,010112,43.9375038147,37.9872741699,48.8298530579,38.7931556702
89,010113,39.931854248,34.8803405762,41.9238433838,39.9445037842
90,010114,39.2645187378,32.1044158936,34.7233428955,32.8405609131
91,010115,35.7739601135,35.4879608154,39.8925056458,38.4517593384
92,010116,42.3331298828,33.4619216919,40.4806785583,38.7789573669
93,010117,41.4479751587,34.9372940063,32.8288536072,35.3198814392
94,010118,29.4332695007,25.0389137268,33.2487983704,29.4491348267
95,010119,49.2052764893,38.9593009949,48.6674613953,36.9189910889
96,010120,36.8456535339,32.7001800537,28.45911026,35.3568305969
97,010121,41.5073471069,37.1048049927,44.6202545166,40.7092208862
98,010122,32.6671218872,37.0382156372,38.1816444397,34.9602050781
99,010123,40.3601264954,36.7143478394,43.1839981079,40.1620483398
100,010124,32.9510154724,29.16157341,31.7684898376,32.1192626953
101,010125,42.9422912598,40.7304229736,47.0553321838,41.6311569214
102,010126,48.037399292,43.8637084961,43.6555404663,47.0845985413
103,010127,36.9359207153,35.6613807678,43.7089424133,40.9931983948
104,010128,44.8569755554,37.9563446045,42.0622138977,40.3423843384
105,010129,28.4312324524,25.6162452698,39.7591362,38.6041145325
106,010130,42.0898933411,41.6271286011,42.7457733154,37.0838928223
107,010131,43.1359596252,34.7138214111,42.1474533081,39.1472625732
108,010132,45.604888916,38.2505645752,44.3528671265,40.1551437378
109,010133,30.0763263702,30.8131446838,26.3713340759,
110,010135,34.4466896057,38.1136245728,42.5951156616,39.255771637
111,010136,35.8134841919,38.2350959778,40.0387611389,42.5051612854
112,010137,42.2313537598,43.2847061157,47.390663147,44.0732955933
113,010138,38.8333587646,40.1370391846,44.8193206787,35.0073890686
114,010139,37.4638977051,35.1464195251,43.5560951233,39.324344635
115,010140,40.7722320557,40.2871017456,40.0360984802,33.4344825745
116,010141,36.167098999,34.3665313721,44.1844177246,41.3379707336
117,010142,41.9674453735,38.4702072144,44.4147033691,38.3381500244
118,010143,51.2627868652,38.1512641907,43.5966300964,45.145401001
119,010144,50.1405296326,39.5857772827,38.595539093,47.770778656
120,010145,38.4515190125,40.8104896545,40.6802215576,43.7650947571
121,010146,45.7596740723,36.7913513184,46.8571853638,34.1850357056
122,010147,40.8666229248,40.0932846069,46.9797897339,41.3481292725
123,010149,40.8010215759,38.1142959595,35.9306869507,33.5500297546
124,010151,38.4385452271,33.0042114258,38.2723960876,32.0771903992
125,010152,38.4122314453,36.5634498596,42.7166061401,34.6593132019
126,010154,37.8971138,30.9029712677,37.5074386597,32.9816360474
127,010155,41.945728302,39.4831314087,37.4301834106,33.518283844
128,010157,40.7853469849,44.8441047668,41.4520988464,41.157623291
129,010158,34.5820121765,31.9423522949,38.782875061,36.2702255249
130,010159,30.7533454895,37.0578155518,37.0670471191,34.8766059875
131,010161,50.7415428162,44.5630645752,35.689994812,43.5338439941
132,010162,42.8321151733,36.4183006287,39.4041099548,42.4026565552
133,010163,45.1443367004,37.8868370056,46.945148468,45.7112846375
134,010164,44.4296379089,32.0671882629,42.0068511963,37.017326355
135,010165,40.7909545898,35.5216140747,40.9758338928,30.2072429657
136,010166,40.053276062,34.9528617859,36.9613800049,32.9749641418
137,010167,45.1297721863,40.9662666321,47.1292266846,44.1280479431
138,010168,42.1729431152,38.6308746338,40.4531517029,32.1778335571
139,010171,40.658000946,34.855506897,37.7046394348,37.8981246948
140,010172,39.7004852295,38.7870941162,31.5956802368,41.448513031
141,010173,44.6357078552,44.1229133606,46.9919090271,45.084186554
142,010174,42.0673408508,38.1560325623,37.8343429565,38.6574172974
143,010175,40.6271324158,34.3468017578,39.5073471069,34.7796401978
144,010176,40.147354126,35.7761611938,38.9902420044,41.2944488525
145,010178,42.0526657104,41.1417808533,44.5593185425,41.2056922913
146,010179,43.2747344971,35.7853279114,42.4662094116,41.7266616821
147,010181,45.9684257507,40.5771827698,45.1444549561,44.9624176025
148,010182,40.4570007324,37.8090057373,34.154335022,33.0756072998
149,010185,40.629119873,41.8557167053,44.8838310242,42.1347618103
150,010186,50.0743255615,45.6796531677,50.886516571,43.4258956909
151,010187,43.6011886597,37.7016067505,43.7168159485,37.298625946
152,010188,39.7545585632,34.9111480713,37.5013618469,39.2051391602
153,010189,41.1330871582,37.2338142395,43.9657058716,46.0536842346
154,010190,34.137008667,36.2558326721,37.9453430176,31.6603527069
155,010191,36.596862793,37.9201202393,43.0785980225,40.7628898621
156,010192,36.1055603027,39.7660522461,44.806552887,43.382522583
157,010194,34.3473129272,34.8787307739,31.9449043274,26.222038269
158,010195,34.5960845947,30.4358158112,36.026096344,33.7456436157
159,010196,44.923324585,40.7941360474,43.7237091064,43.4151763916
160,010198,40.6344795227,35.4470367432,35.3288879395,35.0684967041
161,010200,40.1247177124,35.4148330688,31.5711708069,29.9235992432
162,010201,57.5710144043,44.1663513184,46.8677558899,47.2418899536
163,010203,54.831111908,44.256313324,51.8973693848,54.5957756042
164,010204,40.1435241699,36.9893417358,43.1813049316,33.1237640381
165,010205,39.6776809692,39.9047546387,39.6255569458,27.5988292694
166,010206,41.8671646118,41.829788208,47.6153335571,40.64818573
167,010208,42.747756958,36.6388130188,39.953742981,36.5039176941
168,010209,41.9721374512,41.8432044983,46.8782081604,43.0332794189
169,010210,39.8894958496,42.2980117798,44.6260566711,41.5153198242
170,010211,34.8197746277,35.9357261658,41.3811569214,34.7344741821
171,010212,35.9617004395,39.8220481873,43.9220275879,45.6664886475
172,010213,54.3468742371,47.7646331787,57.9918479919,55.0406150818
173,010215,39.0870361328,41.2665176392,45.6855964661,40.8980941772
174,010216,44.2707557678,33.2799682617,41.7505378723,33.2751426697
175,010217,39.1024703979,32.2851486206,35.5678710938,31.1835517883
176,010218,45.3713874817,41.2449760437,45.0359191895,38.2496681213
177,010220,47.0509185791,46.6608581543,42.5119247437,46.4057655334
178,010221,48.7747993469,42.5596084595,38.1824874878,34.8807411194
179,010224,48.341506958,46.2952156067,48.2601394653,39.3946075439
180,010225,46.9610939026,48.9838562012,48.3409347534,42.7550354004
181,010226,38.134475708,32.3352432251,32.0793609619,30.5328617096
182,010227,55.4144744873,41.1062088013,48.9939422607,50.9687728882
183,010228,48.3988838196,48.6654663086,54.0135765076,47.3414230347
184,010229,53.5173110962,49.4891357422,52.8236160278,53.5052642822
185,010230,50.3714065552,49.1535949707,53.5020523071,50.9931488037
186,010231,46.74609375,45.1870117188,44.928527832,47.2721672058
187,010232,51.30103302,48.4869117737,55.9911727905,49.6161117554
188,010233,46.0698547363,43.4223060608,49.2062606812,35.1558456421
